# TOPAS Version: 3.8.p1
# Parameter File: HadronLET.txt
# Results for scorer: DoseZY
# Scored in component: ScoringZYBox
# X in 1 bin  of 10 cm
# Y in 100 bins of 0.1 cm
# Z in 300 bins of 0.0666667 cm
# DoseToMedium ( Gy ) : Sum   
0, 0, 0, 0
0, 0, 1, 0
0, 0, 2, 0
0, 0, 3, 0
0, 0, 4, 0
0, 0, 5, 0
0, 0, 6, 0
0, 0, 7, 0
0, 0, 8, 0
0, 0, 9, 0
0, 0, 10, 0
0, 0, 11, 0
0, 0, 12, 0
0, 0, 13, 0
0, 0, 14, 0
0, 0, 15, 0
0, 0, 16, 0
0, 0, 17, 0
0, 0, 18, 0
0, 0, 19, 0
0, 0, 20, 0
0, 0, 21, 0
0, 0, 22, 1.144712102885137e-09
0, 0, 23, 3.268874948503253e-09
0, 0, 24, 0
0, 0, 25, 3.470460724352975e-11
0, 0, 26, 3.477988452793568e-10
0, 0, 27, 5.227236976601546e-10
0, 0, 28, 3.929076786146624e-10
0, 0, 29, 2.602423831987721e-10
0, 0, 30, 1.220203937890574e-09
0, 0, 31, 1.471990723755923e-10
0, 0, 32, 0
0, 0, 33, 0
0, 0, 34, 0
0, 0, 35, 0
0, 0, 36, 0
0, 0, 37, 0
0, 0, 38, 0
0, 0, 39, 0
0, 0, 40, 4.533539613594401e-13
0, 0, 41, 0
0, 0, 42, 4.815712273398276e-10
0, 0, 43, 0
0, 0, 44, 0
0, 0, 45, 0
0, 0, 46, 0
0, 0, 47, 0
0, 0, 48, 9.063664749286993e-12
0, 0, 49, 0
0, 0, 50, 0
0, 0, 51, 0
0, 0, 52, 0
0, 0, 53, 0
0, 0, 54, 0
0, 0, 55, 0
0, 0, 56, 0
0, 0, 57, 1.627025337375132e-12
0, 0, 58, 0
0, 0, 59, 0
0, 0, 60, 0
0, 0, 61, 0
0, 0, 62, 0
0, 0, 63, 0
0, 0, 64, 0
0, 0, 65, 0
0, 0, 66, 0
0, 0, 67, 0
0, 0, 68, 0
0, 0, 69, 9.141465362461076e-10
0, 0, 70, 1.066972288299439e-08
0, 0, 71, 1.366761370746872e-08
0, 0, 72, 1.891676398857456e-10
0, 0, 73, 0
0, 0, 74, 0
0, 0, 75, 0
0, 0, 76, 5.311908690686096e-10
0, 0, 77, 0
0, 0, 78, 0
0, 0, 79, 3.029488049310913e-10
0, 0, 80, 0
0, 0, 81, 1.646952574319016e-10
0, 0, 82, 2.374461460785682e-10
0, 0, 83, 0
0, 0, 84, 3.830715744612689e-10
0, 0, 85, 2.98781499541434e-10
0, 0, 86, 2.278706216773951e-11
0, 0, 87, 0
0, 0, 88, 0
0, 0, 89, 0
0, 0, 90, 0
0, 0, 91, 0
0, 0, 92, 0
0, 0, 93, 0
0, 0, 94, 0
0, 0, 95, 0
0, 0, 96, 9.947646040231461e-10
0, 0, 97, 0
0, 0, 98, 3.162070865564415e-12
0, 0, 99, 1.222949742666005e-16
0, 0, 100, 4.187284742031283e-13
0, 0, 101, 0
0, 0, 102, 1.524011494780098e-08
0, 0, 103, 8.463970857519598e-09
0, 0, 104, 6.249444961525796e-09
0, 0, 105, 2.525234066297344e-08
0, 0, 106, 4.925476915218496e-08
0, 0, 107, 5.660530533191377e-08
0, 0, 108, 1.122611692494502e-07
0, 0, 109, 1.627400934012257e-07
0, 0, 110, 1.663249236116826e-07
0, 0, 111, 1.686132833356169e-07
0, 0, 112, 1.529944455569421e-07
0, 0, 113, 1.861515102064004e-07
0, 0, 114, 1.568912182392523e-07
0, 0, 115, 1.072932249712721e-07
0, 0, 116, 1.04271734358008e-07
0, 0, 117, 1.183621876066354e-07
0, 0, 118, 1.017564343896993e-07
0, 0, 119, 9.345874474320226e-08
0, 0, 120, 9.712727688793166e-08
0, 0, 121, 8.306485455022994e-08
0, 0, 122, 7.40602459359252e-08
0, 0, 123, 9.039172255143058e-08
0, 0, 124, 7.192149098500522e-08
0, 0, 125, 6.638182270535253e-08
0, 0, 126, 8.490069802746802e-08
0, 0, 127, 7.562154280549294e-08
0, 0, 128, 7.59939382533048e-08
0, 0, 129, 7.290499581813492e-08
0, 0, 130, 7.450604755376844e-08
0, 0, 131, 8.07736242336432e-08
0, 0, 132, 8.415111807380526e-08
0, 0, 133, 1.034772623142999e-07
0, 0, 134, 8.028136022630861e-08
0, 0, 135, 6.323903534166675e-08
0, 0, 136, 5.624846721730137e-08
0, 0, 137, 4.436855505218773e-08
0, 0, 138, 4.177505630309497e-08
0, 0, 139, 4.107004869524644e-08
0, 0, 140, 4.026614064400746e-08
0, 0, 141, 4.401105258011739e-08
0, 0, 142, 5.795408597464302e-08
0, 0, 143, 5.229315647170552e-08
0, 0, 144, 4.653039198387887e-08
0, 0, 145, 5.423939697379865e-08
0, 0, 146, 6.041818068069915e-08
0, 0, 147, 7.493832043792281e-08
0, 0, 148, 5.979455863780458e-08
0, 0, 149, 6.315204359452764e-08
0, 0, 150, 5.808018244124469e-08
0, 0, 151, 6.154886023068684e-08
0, 0, 152, 4.799449726533567e-08
0, 0, 153, 4.568313016761749e-08
0, 0, 154, 4.110376394805826e-08
0, 0, 155, 4.100696671116566e-08
0, 0, 156, 4.9543963598353e-08
0, 0, 157, 4.888265081604004e-08
0, 0, 158, 5.955281778824428e-08
0, 0, 159, 5.276298509215849e-08
0, 0, 160, 4.291884536655743e-08
0, 0, 161, 5.724362139858385e-08
0, 0, 162, 4.028464317684666e-08
0, 0, 163, 5.022903692974978e-08
0, 0, 164, 7.964511183899958e-08
0, 0, 165, 1.311308892582019e-07
0, 0, 166, 7.056748785316813e-08
0, 0, 167, 6.855606926592372e-08
0, 0, 168, 6.143379494005785e-08
0, 0, 169, 5.626496246691204e-08
0, 0, 170, 3.845513418809787e-08
0, 0, 171, 4.778488005285908e-08
0, 0, 172, 5.298689842447857e-08
0, 0, 173, 2.453466052543263e-08
0, 0, 174, 2.908400276169232e-08
0, 0, 175, 2.584607194933142e-08
0, 0, 176, 4.384210328112204e-08
0, 0, 177, 5.812999503973515e-08
0, 0, 178, 5.150016590960149e-08
0, 0, 179, 5.857859264324361e-08
0, 0, 180, 5.606975861383034e-08
0, 0, 181, 4.248727591971146e-08
0, 0, 182, 4.776362061420514e-08
0, 0, 183, 3.184601737871162e-08
0, 0, 184, 2.898616635604867e-08
0, 0, 185, 2.667621323837466e-08
0, 0, 186, 3.08771959112164e-08
0, 0, 187, 3.05091134578106e-08
0, 0, 188, 2.774772767111244e-08
0, 0, 189, 2.238843066493246e-08
0, 0, 190, 1.949212702356817e-08
0, 0, 191, 2.437103852059863e-08
0, 0, 192, 2.627712447633712e-08
0, 0, 193, 3.150380578631484e-08
0, 0, 194, 3.299703976722412e-08
0, 0, 195, 2.730358694691404e-08
0, 0, 196, 2.375780816521456e-08
0, 0, 197, 2.211938898710741e-08
0, 0, 198, 2.529942300100174e-08
0, 0, 199, 3.002302406684976e-08
0, 0, 200, 3.63607384201714e-08
0, 0, 201, 3.92055241604794e-08
0, 0, 202, 3.456619523944937e-08
0, 0, 203, 3.250941915666772e-08
0, 0, 204, 2.676079269292586e-08
0, 0, 205, 2.790223518900348e-08
0, 0, 206, 4.194010827518468e-08
0, 0, 207, 4.250842877695504e-08
0, 0, 208, 4.064382252977339e-08
0, 0, 209, 3.144319649095451e-08
0, 0, 210, 2.232724050088564e-08
0, 0, 211, 2.296552281677577e-08
0, 0, 212, 2.587280079069387e-08
0, 0, 213, 4.080238724668561e-08
0, 0, 214, 3.093391143238478e-08
0, 0, 215, 3.48015625206699e-08
0, 0, 216, 3.330369580112347e-08
0, 0, 217, 2.823188971490254e-08
0, 0, 218, 2.436688895102179e-08
0, 0, 219, 2.320770775554593e-08
0, 0, 220, 2.15816111648337e-08
0, 0, 221, 2.799118981045012e-08
0, 0, 222, 3.56467104722924e-08
0, 0, 223, 3.08986969344005e-08
0, 0, 224, 4.024526134571715e-08
0, 0, 225, 3.698343675750948e-08
0, 0, 226, 2.29953744934619e-08
0, 0, 227, 1.935948112929964e-08
0, 0, 228, 2.080398431303365e-08
0, 0, 229, 2.284959954579335e-08
0, 0, 230, 2.828474698901573e-08
0, 0, 231, 3.462371012119547e-08
0, 0, 232, 3.559051364732113e-08
0, 0, 233, 3.26111297965781e-08
0, 0, 234, 3.402115922312987e-08
0, 0, 235, 3.250992719472379e-08
0, 0, 236, 3.905467593767753e-08
0, 0, 237, 3.19050954544764e-08
0, 0, 238, 2.426123479892794e-08
0, 0, 239, 4.572881096009951e-08
0, 0, 240, 5.923978818600517e-08
0, 0, 241, 5.508323397407366e-08
0, 0, 242, 3.173408202883365e-08
0, 0, 243, 4.151364763060883e-08
0, 0, 244, 3.871053877446684e-08
0, 0, 245, 3.368129952718846e-08
0, 0, 246, 3.414876204033135e-08
0, 0, 247, 2.770547169461679e-08
0, 0, 248, 2.246153663065797e-08
0, 0, 249, 4.461279701217791e-08
0, 0, 250, 2.057291759172131e-08
0, 0, 251, 1.616251665836899e-08
0, 0, 252, 1.747518041383955e-08
0, 0, 253, 2.432213008773942e-08
0, 0, 254, 3.348598553998272e-08
0, 0, 255, 2.591824710407309e-08
0, 0, 256, 2.196727955094957e-08
0, 0, 257, 2.492433992529186e-08
0, 0, 258, 2.464460635565047e-08
0, 0, 259, 3.455394903539855e-08
0, 0, 260, 3.626635702858039e-08
0, 0, 261, 3.23563504878166e-08
0, 0, 262, 2.982541147389384e-08
0, 0, 263, 2.717107960847898e-08
0, 0, 264, 2.620423877885969e-08
0, 0, 265, 2.213160321673513e-08
0, 0, 266, 3.106917745299143e-08
0, 0, 267, 1.828838414041911e-08
0, 0, 268, 2.040484226029093e-08
0, 0, 269, 2.125852738288359e-08
0, 0, 270, 2.500793172544036e-08
0, 0, 271, 3.431427231248563e-08
0, 0, 272, 2.951661848271669e-08
0, 0, 273, 1.956122375190716e-08
0, 0, 274, 2.44899620582828e-08
0, 0, 275, 2.660690512357178e-08
0, 0, 276, 4.250145124728988e-08
0, 0, 277, 4.192508384903704e-08
0, 0, 278, 4.723930757677408e-08
0, 0, 279, 2.621390926549338e-08
0, 0, 280, 2.88836670137016e-08
0, 0, 281, 2.093760365085018e-08
0, 0, 282, 2.366436824274842e-08
0, 0, 283, 3.373331480815978e-08
0, 0, 284, 2.537135657121325e-08
0, 0, 285, 2.489552208828627e-08
0, 0, 286, 2.497455042771435e-08
0, 0, 287, 2.151116262893993e-08
0, 0, 288, 2.453275804725763e-08
0, 0, 289, 3.063272657755078e-08
0, 0, 290, 3.131585302185158e-08
0, 0, 291, 3.338537979402645e-08
0, 0, 292, 2.715347058313e-08
0, 0, 293, 2.404044074921785e-08
0, 0, 294, 1.806730764997155e-08
0, 0, 295, 1.924250447871145e-08
0, 0, 296, 2.079736383109321e-08
0, 0, 297, 1.915499936444576e-08
0, 0, 298, 2.111669061832799e-08
0, 0, 299, 2.224604500611349e-08
0, 1, 0, 0
0, 1, 1, 0
0, 1, 2, 0
0, 1, 3, 6.217567016797432e-10
0, 1, 4, 0
0, 1, 5, 0
0, 1, 6, 0
0, 1, 7, 0
0, 1, 8, 0
0, 1, 9, 0
0, 1, 10, 0
0, 1, 11, 0
0, 1, 12, 0
0, 1, 13, 0
0, 1, 14, 0
0, 1, 15, 0
0, 1, 16, 0
0, 1, 17, 3.29478550562326e-13
0, 1, 18, 0
0, 1, 19, 0
0, 1, 20, 0
0, 1, 21, 0
0, 1, 22, 0
0, 1, 23, 5.439066974588513e-10
0, 1, 24, 0
0, 1, 25, 0
0, 1, 26, 0
0, 1, 27, 0
0, 1, 28, 0
0, 1, 29, 0
0, 1, 30, 0
0, 1, 31, 9.276778650813e-11
0, 1, 32, 2.854046443623304e-10
0, 1, 33, 2.498141415951949e-10
0, 1, 34, 0
0, 1, 35, 0
0, 1, 36, 0
0, 1, 37, 0
0, 1, 38, 0
0, 1, 39, 0
0, 1, 40, 0
0, 1, 41, 0
0, 1, 42, 1.426351441471962e-12
0, 1, 43, 0
0, 1, 44, 0
0, 1, 45, 2.091479212040781e-09
0, 1, 46, 0
0, 1, 47, 0
0, 1, 48, 0
0, 1, 49, 0
0, 1, 50, 0
0, 1, 51, 0
0, 1, 52, 0
0, 1, 53, 0
0, 1, 54, 1.892711126716407e-10
0, 1, 55, 0
0, 1, 56, 2.814779520576849e-09
0, 1, 57, 0
0, 1, 58, 6.843558380577319e-13
0, 1, 59, 0
0, 1, 60, 0
0, 1, 61, 0
0, 1, 62, 0
0, 1, 63, 0
0, 1, 64, 0
0, 1, 65, 0
0, 1, 66, 0
0, 1, 67, 0
0, 1, 68, 0
0, 1, 69, 0
0, 1, 70, 0
0, 1, 71, 0
0, 1, 72, 2.655027531162091e-09
0, 1, 73, 0
0, 1, 74, 0
0, 1, 75, 0
0, 1, 76, 0
0, 1, 77, 0
0, 1, 78, 0
0, 1, 79, 0
0, 1, 80, 0
0, 1, 81, 0
0, 1, 82, 1.778417413333955e-10
0, 1, 83, 7.168516891198351e-10
0, 1, 84, 3.102522128095586e-10
0, 1, 85, 0
0, 1, 86, 0
0, 1, 87, 0
0, 1, 88, 0
0, 1, 89, 0
0, 1, 90, 0
0, 1, 91, 8.459572597985243e-09
0, 1, 92, 5.394884197343912e-17
0, 1, 93, 0
0, 1, 94, 7.556316547951622e-15
0, 1, 95, 0
0, 1, 96, 0
0, 1, 97, 0
0, 1, 98, 0
0, 1, 99, 0
0, 1, 100, 0
0, 1, 101, 0
0, 1, 102, 8.857983235799338e-10
0, 1, 103, 2.836902934788554e-09
0, 1, 104, 2.594798864663517e-08
0, 1, 105, 4.749694326733334e-08
0, 1, 106, 5.165806626905578e-08
0, 1, 107, 9.856322691348396e-08
0, 1, 108, 1.214705918073378e-07
0, 1, 109, 1.290640057050041e-07
0, 1, 110, 1.542113352570595e-07
0, 1, 111, 1.98361675529668e-07
0, 1, 112, 2.340669738032375e-07
0, 1, 113, 1.841795267409907e-07
0, 1, 114, 1.743230626516379e-07
0, 1, 115, 1.715152535552988e-07
0, 1, 116, 1.551233168584076e-07
0, 1, 117, 1.640668472191464e-07
0, 1, 118, 1.589735063589615e-07
0, 1, 119, 1.622374554699491e-07
0, 1, 120, 1.558001514467833e-07
0, 1, 121, 1.560889870688698e-07
0, 1, 122, 1.557868785084793e-07
0, 1, 123, 1.468357027079037e-07
0, 1, 124, 1.39370243346093e-07
0, 1, 125, 1.272025116350051e-07
0, 1, 126, 1.100280329069392e-07
0, 1, 127, 1.057128997672407e-07
0, 1, 128, 9.87418147246899e-08
0, 1, 129, 9.725972205387734e-08
0, 1, 130, 9.461319194770113e-08
0, 1, 131, 8.582424726455429e-08
0, 1, 132, 9.642768361572962e-08
0, 1, 133, 9.530489109010887e-08
0, 1, 134, 9.873321715758721e-08
0, 1, 135, 1.13718947147845e-07
0, 1, 136, 1.181055608867609e-07
0, 1, 137, 1.123530708468934e-07
0, 1, 138, 1.008949226388722e-07
0, 1, 139, 9.725064131771433e-08
0, 1, 140, 8.837522358362548e-08
0, 1, 141, 8.259992512194003e-08
0, 1, 142, 7.936451851264792e-08
0, 1, 143, 7.082185504714289e-08
0, 1, 144, 7.783188493704074e-08
0, 1, 145, 7.971984672394683e-08
0, 1, 146, 7.714596961250209e-08
0, 1, 147, 7.268197066423454e-08
0, 1, 148, 6.999166402010815e-08
0, 1, 149, 7.276303648495741e-08
0, 1, 150, 9.292804037386304e-08
0, 1, 151, 8.807840856661642e-08
0, 1, 152, 8.416972718805482e-08
0, 1, 153, 8.527494799182023e-08
0, 1, 154, 7.90011469575802e-08
0, 1, 155, 7.187765049820882e-08
0, 1, 156, 6.791378126536074e-08
0, 1, 157, 8.003530638234224e-08
0, 1, 158, 7.502966070660477e-08
0, 1, 159, 9.251088783912564e-08
0, 1, 160, 7.595019013706406e-08
0, 1, 161, 6.885145609203391e-08
0, 1, 162, 7.229002108033455e-08
0, 1, 163, 6.066853330821687e-08
0, 1, 164, 6.39105053323874e-08
0, 1, 165, 8.564865794369325e-08
0, 1, 166, 7.373115096243055e-08
0, 1, 167, 6.697562326962725e-08
0, 1, 168, 7.370044841081835e-08
0, 1, 169, 8.105206461550551e-08
0, 1, 170, 7.620096909022323e-08
0, 1, 171, 7.766998066927044e-08
0, 1, 172, 9.645312104566983e-08
0, 1, 173, 9.369150433258255e-08
0, 1, 174, 8.069589796377841e-08
0, 1, 175, 7.602405815987368e-08
0, 1, 176, 7.224834064345487e-08
0, 1, 177, 6.864977564191577e-08
0, 1, 178, 6.559544374340476e-08
0, 1, 179, 6.669291963135038e-08
0, 1, 180, 6.237603855652196e-08
0, 1, 181, 7.572399596256219e-08
0, 1, 182, 9.269574974268835e-08
0, 1, 183, 7.345059316321567e-08
0, 1, 184, 7.364732823589293e-08
0, 1, 185, 6.430694554637739e-08
0, 1, 186, 7.34006988523106e-08
0, 1, 187, 6.630175164445973e-08
0, 1, 188, 6.620227566145331e-08
0, 1, 189, 8.208670720932787e-08
0, 1, 190, 6.124593454615024e-08
0, 1, 191, 5.101792766026847e-08
0, 1, 192, 4.193903180294001e-08
0, 1, 193, 4.361364958072045e-08
0, 1, 194, 4.215708315769007e-08
0, 1, 195, 4.508774509304203e-08
0, 1, 196, 4.700818578839971e-08
0, 1, 197, 4.992149627014442e-08
0, 1, 198, 4.72798760142723e-08
0, 1, 199, 4.077831761151174e-08
0, 1, 200, 4.218815163881118e-08
0, 1, 201, 4.403929665386386e-08
0, 1, 202, 4.43556729123884e-08
0, 1, 203, 4.417934462708217e-08
0, 1, 204, 4.650316753895822e-08
0, 1, 205, 6.021008402967709e-08
0, 1, 206, 4.125302055513203e-08
0, 1, 207, 4.697608346759807e-08
0, 1, 208, 6.483453063310662e-08
0, 1, 209, 5.048280016239914e-08
0, 1, 210, 4.942646469885403e-08
0, 1, 211, 4.397295683133962e-08
0, 1, 212, 4.000364839384929e-08
0, 1, 213, 3.538801962577054e-08
0, 1, 214, 3.42337180825325e-08
0, 1, 215, 3.168413797993708e-08
0, 1, 216, 3.370961820792218e-08
0, 1, 217, 3.702672302097199e-08
0, 1, 218, 4.335114667242124e-08
0, 1, 219, 3.799178571739503e-08
0, 1, 220, 3.186084285289326e-08
0, 1, 221, 2.741006888129505e-08
0, 1, 222, 3.671867077059687e-08
0, 1, 223, 5.366750244206742e-08
0, 1, 224, 2.804168097725324e-08
0, 1, 225, 3.365940415278601e-08
0, 1, 226, 4.146824750250744e-08
0, 1, 227, 3.205990850574381e-08
0, 1, 228, 3.555258842879994e-08
0, 1, 229, 4.011096166323114e-08
0, 1, 230, 4.210048842878678e-08
0, 1, 231, 4.03724165209951e-08
0, 1, 232, 4.618952686996636e-08
0, 1, 233, 5.00672641123856e-08
0, 1, 234, 3.898351152997748e-08
0, 1, 235, 3.416664995370411e-08
0, 1, 236, 3.798318104486498e-08
0, 1, 237, 3.541058646305828e-08
0, 1, 238, 4.537184494779467e-08
0, 1, 239, 5.131398239655027e-08
0, 1, 240, 5.282031168007961e-08
0, 1, 241, 8.048773736391013e-08
0, 1, 242, 5.624642440693606e-08
0, 1, 243, 5.14955900143832e-08
0, 1, 244, 5.490219834314303e-08
0, 1, 245, 4.877006887227253e-08
0, 1, 246, 5.082349474605508e-08
0, 1, 247, 5.632255550835907e-08
0, 1, 248, 5.765280164382602e-08
0, 1, 249, 4.820862642418433e-08
0, 1, 250, 4.831587929743364e-08
0, 1, 251, 5.207630593417889e-08
0, 1, 252, 4.427749544788639e-08
0, 1, 253, 3.336549170285252e-08
0, 1, 254, 3.314945473675834e-08
0, 1, 255, 4.114249207987086e-08
0, 1, 256, 3.430335837606435e-08
0, 1, 257, 2.844871538343341e-08
0, 1, 258, 2.998006820575938e-08
0, 1, 259, 2.992505443444315e-08
0, 1, 260, 3.105387946789051e-08
0, 1, 261, 3.466971065790858e-08
0, 1, 262, 3.766962919371508e-08
0, 1, 263, 4.007772957947964e-08
0, 1, 264, 4.772546091658114e-08
0, 1, 265, 3.603092224579996e-08
0, 1, 266, 3.759803846037357e-08
0, 1, 267, 3.426616856927467e-08
0, 1, 268, 2.935833620654194e-08
0, 1, 269, 2.56745860127694e-08
0, 1, 270, 2.530036624648346e-08
0, 1, 271, 2.231185725065643e-08
0, 1, 272, 3.154933025939499e-08
0, 1, 273, 3.887270594304937e-08
0, 1, 274, 3.36411893897548e-08
0, 1, 275, 2.686244471306054e-08
0, 1, 276, 3.275765791954655e-08
0, 1, 277, 5.306391770432128e-08
0, 1, 278, 5.524723079020077e-08
0, 1, 279, 4.989480473227559e-08
0, 1, 280, 5.278507586581327e-08
0, 1, 281, 4.449901780390064e-08
0, 1, 282, 3.690351846330486e-08
0, 1, 283, 2.825251499416481e-08
0, 1, 284, 3.087944833168876e-08
0, 1, 285, 3.588095509599043e-08
0, 1, 286, 2.674542898262189e-08
0, 1, 287, 2.706050850065367e-08
0, 1, 288, 2.761522743810474e-08
0, 1, 289, 2.828985934399952e-08
0, 1, 290, 2.868167925385023e-08
0, 1, 291, 3.649757829293776e-08
0, 1, 292, 3.885010713133852e-08
0, 1, 293, 3.58989247217778e-08
0, 1, 294, 3.795872061118644e-08
0, 1, 295, 2.68921898083363e-08
0, 1, 296, 2.602712179111677e-08
0, 1, 297, 2.711538549249326e-08
0, 1, 298, 2.890467598604118e-08
0, 1, 299, 2.583800018385318e-08
0, 2, 0, 0
0, 2, 1, 0
0, 2, 2, 0
0, 2, 3, 0
0, 2, 4, 2.438262258763757e-09
0, 2, 5, 8.056248723686821e-11
0, 2, 6, 4.059675859369172e-11
0, 2, 7, 0
0, 2, 8, 0
0, 2, 9, 0
0, 2, 10, 0
0, 2, 11, 0
0, 2, 12, 9.877129496238535e-13
0, 2, 13, 0
0, 2, 14, 0
0, 2, 15, 0
0, 2, 16, 1.494163842132024e-12
0, 2, 17, 6.222744758713206e-13
0, 2, 18, 0
0, 2, 19, 0
0, 2, 20, 0
0, 2, 21, 7.465954199635806e-17
0, 2, 22, 0
0, 2, 23, 2.126485654230237e-08
0, 2, 24, 0
0, 2, 25, 0
0, 2, 26, 0
0, 2, 27, 0
0, 2, 28, 0
0, 2, 29, 0
0, 2, 30, 0
0, 2, 31, 0
0, 2, 32, 0
0, 2, 33, 3.329506809146565e-11
0, 2, 34, 2.670159648943127e-10
0, 2, 35, 2.308035151887822e-10
0, 2, 36, 1.700239671276194e-10
0, 2, 37, 7.396219747768384e-10
0, 2, 38, 0
0, 2, 39, 0
0, 2, 40, 0
0, 2, 41, 0
0, 2, 42, 0
0, 2, 43, 5.826075252694329e-17
0, 2, 44, 0
0, 2, 45, 0
0, 2, 46, 0
0, 2, 47, 0
0, 2, 48, 0
0, 2, 49, 0
0, 2, 50, 0
0, 2, 51, 0
0, 2, 52, 0
0, 2, 53, 0
0, 2, 54, 0
0, 2, 55, 0
0, 2, 56, 0
0, 2, 57, 0
0, 2, 58, 0
0, 2, 59, 0
0, 2, 60, 0
0, 2, 61, 0
0, 2, 62, 0
0, 2, 63, 0
0, 2, 64, 1.167947294433702e-09
0, 2, 65, 0
0, 2, 66, 0
0, 2, 67, 0
0, 2, 68, 0
0, 2, 69, 0
0, 2, 70, 0
0, 2, 71, 0
0, 2, 72, 1.312294439781425e-10
0, 2, 73, 0
0, 2, 74, 0
0, 2, 75, 0
0, 2, 76, 2.172064084149383e-09
0, 2, 77, 0
0, 2, 78, 0
0, 2, 79, 0
0, 2, 80, 0
0, 2, 81, 0
0, 2, 82, 1.175373340323027e-11
0, 2, 83, 0
0, 2, 84, 2.582206393153541e-10
0, 2, 85, 3.447160057401533e-10
0, 2, 86, 3.515501223461115e-10
0, 2, 87, 3.215524027599947e-11
0, 2, 88, 2.398009846249494e-10
0, 2, 89, 5.819281501118212e-09
0, 2, 90, 1.58718638232358e-09
0, 2, 91, 0
0, 2, 92, 3.404298544451567e-12
0, 2, 93, 0
0, 2, 94, 5.209786933997075e-14
0, 2, 95, 0
0, 2, 96, 3.74717118445389e-10
0, 2, 97, 0
0, 2, 98, 0
0, 2, 99, 0
0, 2, 100, 0
0, 2, 101, 0
0, 2, 102, 1.093764618806392e-12
0, 2, 103, 1.462663945517306e-08
0, 2, 104, 1.312569608558078e-08
0, 2, 105, 7.834670689987888e-09
0, 2, 106, 7.979015492765029e-08
0, 2, 107, 1.355935239644168e-07
0, 2, 108, 1.817488737287931e-07
0, 2, 109, 2.170483242025512e-07
0, 2, 110, 2.184985561370922e-07
0, 2, 111, 2.181600962103403e-07
0, 2, 112, 2.364408828725573e-07
0, 2, 113, 2.018084472865667e-07
0, 2, 114, 2.092126436537001e-07
0, 2, 115, 2.351269188238803e-07
0, 2, 116, 2.154065725790133e-07
0, 2, 117, 1.878064210814046e-07
0, 2, 118, 1.624994894200427e-07
0, 2, 119, 1.726241265487261e-07
0, 2, 120, 1.435443834907346e-07
0, 2, 121, 1.134211728981427e-07
0, 2, 122, 1.083771792309562e-07
0, 2, 123, 1.162784286634633e-07
0, 2, 124, 1.231699116033269e-07
0, 2, 125, 1.220063410301009e-07
0, 2, 126, 1.409122774020943e-07
0, 2, 127, 1.244742264816523e-07
0, 2, 128, 1.169428642810999e-07
0, 2, 129, 1.316326319056316e-07
0, 2, 130, 1.25490316804644e-07
0, 2, 131, 1.088494343548518e-07
0, 2, 132, 1.05369238667663e-07
0, 2, 133, 1.09719174190559e-07
0, 2, 134, 1.144254468954387e-07
0, 2, 135, 1.03890236857751e-07
0, 2, 136, 1.229136756819571e-07
0, 2, 137, 1.153012689769639e-07
0, 2, 138, 1.136390181954994e-07
0, 2, 139, 1.323067664316113e-07
0, 2, 140, 1.044396427118954e-07
0, 2, 141, 1.01968815613418e-07
0, 2, 142, 1.012352015550277e-07
0, 2, 143, 1.028438134653697e-07
0, 2, 144, 9.43375866313545e-08
0, 2, 145, 8.452552435755933e-08
0, 2, 146, 8.087361180741937e-08
0, 2, 147, 8.481315205699502e-08
0, 2, 148, 8.528214578973348e-08
0, 2, 149, 8.273531904023912e-08
0, 2, 150, 8.613108803956493e-08
0, 2, 151, 9.026545200185865e-08
0, 2, 152, 9.112992671589382e-08
0, 2, 153, 7.710627158985517e-08
0, 2, 154, 7.774146837391527e-08
0, 2, 155, 8.171107879206829e-08
0, 2, 156, 8.175813093203033e-08
0, 2, 157, 7.568966964299761e-08
0, 2, 158, 7.675264868112208e-08
0, 2, 159, 7.50354374190465e-08
0, 2, 160, 9.60536539196255e-08
0, 2, 161, 1.146961281506265e-07
0, 2, 162, 8.93878180363572e-08
0, 2, 163, 7.558055870049429e-08
0, 2, 164, 6.930493157142337e-08
0, 2, 165, 6.658483897581391e-08
0, 2, 166, 7.134947566100891e-08
0, 2, 167, 6.30284233693601e-08
0, 2, 168, 5.1081620711102e-08
0, 2, 169, 5.647767054028918e-08
0, 2, 170, 6.459234214162279e-08
0, 2, 171, 6.883710312877156e-08
0, 2, 172, 6.695378118592998e-08
0, 2, 173, 6.308475519745116e-08
0, 2, 174, 6.739558955359826e-08
0, 2, 175, 6.241203465151557e-08
0, 2, 176, 6.160657761711263e-08
0, 2, 177, 6.40631085957466e-08
0, 2, 178, 6.360944837524585e-08
0, 2, 179, 5.925436497022929e-08
0, 2, 180, 5.97989640027663e-08
0, 2, 181, 5.383674306358444e-08
0, 2, 182, 5.539372693874611e-08
0, 2, 183, 4.719344914860812e-08
0, 2, 184, 4.862799229954362e-08
0, 2, 185, 5.069097852583582e-08
0, 2, 186, 5.459605390001343e-08
0, 2, 187, 5.514929668493096e-08
0, 2, 188, 8.280287033812783e-08
0, 2, 189, 6.070818159287228e-08
0, 2, 190, 5.384243451089787e-08
0, 2, 191, 6.600152602231901e-08
0, 2, 192, 6.683404052409969e-08
0, 2, 193, 5.308825379302107e-08
0, 2, 194, 5.297431471262826e-08
0, 2, 195, 5.882736431317426e-08
0, 2, 196, 4.74929109373079e-08
0, 2, 197, 4.890264193591065e-08
0, 2, 198, 4.890559779369141e-08
0, 2, 199, 5.104272915446018e-08
0, 2, 200, 5.501190258883071e-08
0, 2, 201, 6.832433996351028e-08
0, 2, 202, 6.373992533781347e-08
0, 2, 203, 5.699799743297262e-08
0, 2, 204, 5.285885507078092e-08
0, 2, 205, 5.014492998611786e-08
0, 2, 206, 4.988503121694521e-08
0, 2, 207, 4.973044198663956e-08
0, 2, 208, 5.010577197595012e-08
0, 2, 209, 5.316865880899968e-08
0, 2, 210, 5.454350571199029e-08
0, 2, 211, 5.631433452890633e-08
0, 2, 212, 6.432406252088185e-08
0, 2, 213, 7.273790458839358e-08
0, 2, 214, 9.096206099457049e-08
0, 2, 215, 6.980209121820735e-08
0, 2, 216, 5.883127229822094e-08
0, 2, 217, 7.999179274520429e-08
0, 2, 218, 5.033647809682407e-08
0, 2, 219, 5.191007090843414e-08
0, 2, 220, 6.017788223289244e-08
0, 2, 221, 5.704937677819544e-08
0, 2, 222, 5.947295989017221e-08
0, 2, 223, 6.338581215459271e-08
0, 2, 224, 4.673492881579477e-08
0, 2, 225, 4.91334475327676e-08
0, 2, 226, 4.82343551766462e-08
0, 2, 227, 5.179013840006519e-08
0, 2, 228, 5.626291965654673e-08
0, 2, 229, 4.905418293787989e-08
0, 2, 230, 1.193841825397612e-07
0, 2, 231, 4.715177936986947e-08
0, 2, 232, 4.975116141281433e-08
0, 2, 233, 5.995607921249757e-08
0, 2, 234, 6.324703605287141e-08
0, 2, 235, 5.847602579933664e-08
0, 2, 236, 5.297604133147615e-08
0, 2, 237, 6.002138519534128e-08
0, 2, 238, 7.492243980777857e-08
0, 2, 239, 5.542349512666078e-08
0, 2, 240, 5.487408927251636e-08
0, 2, 241, 5.916561462981917e-08
0, 2, 242, 5.356992360816548e-08
0, 2, 243, 7.62743255222631e-08
0, 2, 244, 5.592803731246931e-08
0, 2, 245, 5.454897689105564e-08
0, 2, 246, 5.32415889153981e-08
0, 2, 247, 4.825415089726448e-08
0, 2, 248, 4.395620578634407e-08
0, 2, 249, 5.070579334187642e-08
0, 2, 250, 4.47485923871227e-08
0, 2, 251, 5.60818662620477e-08
0, 2, 252, 5.70998253124344e-08
0, 2, 253, 5.632627519958078e-08
0, 2, 254, 5.045571782602565e-08
0, 2, 255, 5.0534875839503e-08
0, 2, 256, 5.505800260152682e-08
0, 2, 257, 5.033435357404414e-08
0, 2, 258, 5.029576755077869e-08
0, 2, 259, 4.755116123078551e-08
0, 2, 260, 1.160608604777735e-07
0, 2, 261, 6.946714137257004e-08
0, 2, 262, 6.826911658208701e-08
0, 2, 263, 4.28652917605632e-08
0, 2, 264, 4.609785619891227e-08
0, 2, 265, 4.900925887341145e-08
0, 2, 266, 4.765149697050219e-08
0, 2, 267, 4.750305748757455e-08
0, 2, 268, 5.111312972871929e-08
0, 2, 269, 4.70459120549549e-08
0, 2, 270, 4.828195088180109e-08
0, 2, 271, 4.545887932749793e-08
0, 2, 272, 4.483694837631447e-08
0, 2, 273, 4.45008687677273e-08
0, 2, 274, 4.893178484621785e-08
0, 2, 275, 4.705548661831926e-08
0, 2, 276, 4.408196474514625e-08
0, 2, 277, 4.357832139589846e-08
0, 2, 278, 5.252868007232792e-08
0, 2, 279, 5.69886502432837e-08
0, 2, 280, 4.988552504414656e-08
0, 2, 281, 6.565823440496388e-08
0, 2, 282, 5.34894972759048e-08
0, 2, 283, 4.669860587114272e-08
0, 2, 284, 4.207494086472252e-08
0, 2, 285, 4.490943439350303e-08
0, 2, 286, 4.421629640205538e-08
0, 2, 287, 4.39178400313267e-08
0, 2, 288, 3.999451791969477e-08
0, 2, 289, 3.916073154641708e-08
0, 2, 290, 4.006648524068623e-08
0, 2, 291, 3.67925032662697e-08
0, 2, 292, 3.935522130404934e-08
0, 2, 293, 4.887794347041563e-08
0, 2, 294, 4.411380061242198e-08
0, 2, 295, 5.01768475658082e-08
0, 2, 296, 4.216322224692703e-08
0, 2, 297, 3.621494926164814e-08
0, 2, 298, 3.195813391698721e-08
0, 2, 299, 3.663929604158511e-08
0, 3, 0, 0
0, 3, 1, 0
0, 3, 2, 0
0, 3, 3, 0
0, 3, 4, 1.047618081173596e-08
0, 3, 5, 0
0, 3, 6, 0
0, 3, 7, 0
0, 3, 8, 0
0, 3, 9, 0
0, 3, 10, 0
0, 3, 11, 3.585460687225401e-17
0, 3, 12, 0
0, 3, 13, 0
0, 3, 14, 0
0, 3, 15, 0
0, 3, 16, 0
0, 3, 17, 7.095594337404784e-17
0, 3, 18, 0
0, 3, 19, 4.541249754713705e-12
0, 3, 20, 0
0, 3, 21, 2.669414274755679e-16
0, 3, 22, 0
0, 3, 23, 1.17905161189924e-08
0, 3, 24, 3.409832693979098e-10
0, 3, 25, 0
0, 3, 26, 0
0, 3, 27, 0
0, 3, 28, 0
0, 3, 29, 0
0, 3, 30, 0
0, 3, 31, 0
0, 3, 32, 0
0, 3, 33, 0
0, 3, 34, 0
0, 3, 35, 0
0, 3, 36, 7.635865550970067e-11
0, 3, 37, 4.277829201981831e-10
0, 3, 38, 1.547589972838992e-10
0, 3, 39, 5.248624104781108e-11
0, 3, 40, 2.284837041788279e-10
0, 3, 41, 2.255962083808072e-10
0, 3, 42, 2.078539423910897e-10
0, 3, 43, 2.675235866167469e-10
0, 3, 44, 3.465736309049561e-10
0, 3, 45, 2.00544567063865e-10
0, 3, 46, 0
0, 3, 47, 0
0, 3, 48, 0
0, 3, 49, 0
0, 3, 50, 0
0, 3, 51, 0
0, 3, 52, 0
0, 3, 53, 5.684180123116667e-12
0, 3, 54, 0
0, 3, 55, 2.413037478166125e-11
0, 3, 56, 0
0, 3, 57, 0
0, 3, 58, 0
0, 3, 59, 0
0, 3, 60, 9.997316863241679e-11
0, 3, 61, 0
0, 3, 62, 0
0, 3, 63, 1.489927799191992e-11
0, 3, 64, 0
0, 3, 65, 2.905631291127975e-10
0, 3, 66, 5.660886204239546e-10
0, 3, 67, 7.705840224811814e-14
0, 3, 68, 0
0, 3, 69, 0
0, 3, 70, 0
0, 3, 71, 0
0, 3, 72, 0
0, 3, 73, 0
0, 3, 74, 2.642800499552949e-16
0, 3, 75, 0
0, 3, 76, 2.27962697072555e-15
0, 3, 77, 2.824361577946632e-10
0, 3, 78, 6.653085135168926e-17
0, 3, 79, 0
0, 3, 80, 0
0, 3, 81, 0
0, 3, 82, 0
0, 3, 83, 0
0, 3, 84, 5.214582654566868e-10
0, 3, 85, 1.108838465491147e-09
0, 3, 86, 0
0, 3, 87, 3.724035801955239e-10
0, 3, 88, 4.873598191679207e-10
0, 3, 89, 0
0, 3, 90, 3.753478916568298e-10
0, 3, 91, 6.578866895701196e-10
0, 3, 92, 0
0, 3, 93, 6.329296461937695e-12
0, 3, 94, 0
0, 3, 95, 0
0, 3, 96, 0
0, 3, 97, 0
0, 3, 98, 0
0, 3, 99, 1.240204382828004e-17
0, 3, 100, 0
0, 3, 101, 0
0, 3, 102, 1.334030308441925e-08
0, 3, 103, 4.305993428488364e-08
0, 3, 104, 5.123792234940083e-08
0, 3, 105, 6.721541723209157e-08
0, 3, 106, 8.695818110027176e-08
0, 3, 107, 1.675095973041607e-07
0, 3, 108, 1.93485988120301e-07
0, 3, 109, 2.33268877991577e-07
0, 3, 110, 1.935436557687353e-07
0, 3, 111, 2.406631551821192e-07
0, 3, 112, 2.321455525589045e-07
0, 3, 113, 2.568911270373064e-07
0, 3, 114, 2.286274707330449e-07
0, 3, 115, 2.376260823666598e-07
0, 3, 116, 2.411578350347554e-07
0, 3, 117, 2.458842516261939e-07
0, 3, 118, 2.366986393553816e-07
0, 3, 119, 2.178999238822144e-07
0, 3, 120, 2.278276269862545e-07
0, 3, 121, 2.051316556617166e-07
0, 3, 122, 2.04605512976741e-07
0, 3, 123, 1.924258441476923e-07
0, 3, 124, 1.602925863153359e-07
0, 3, 125, 1.469412751475829e-07
0, 3, 126, 1.277338839145159e-07
0, 3, 127, 1.245216054712728e-07
0, 3, 128, 1.228096806471513e-07
0, 3, 129, 1.136473670726446e-07
0, 3, 130, 1.495244674742935e-07
0, 3, 131, 1.528698732045086e-07
0, 3, 132, 1.319854021630817e-07
0, 3, 133, 1.153002031628603e-07
0, 3, 134, 1.296800462569081e-07
0, 3, 135, 1.249696026661695e-07
0, 3, 136, 1.195675451981515e-07
0, 3, 137, 1.155216367010325e-07
0, 3, 138, 1.151468254079191e-07
0, 3, 139, 1.501301625239648e-07
0, 3, 140, 1.395520143887552e-07
0, 3, 141, 1.200783117383253e-07
0, 3, 142, 1.207866517916045e-07
0, 3, 143, 1.060066310287766e-07
0, 3, 144, 1.038809713804767e-07
0, 3, 145, 1.045286524004041e-07
0, 3, 146, 1.041298745008135e-07
0, 3, 147, 1.043852790871824e-07
0, 3, 148, 9.30952808175789e-08
0, 3, 149, 9.385670551864678e-08
0, 3, 150, 9.329709627081684e-08
0, 3, 151, 9.697208014358694e-08
0, 3, 152, 1.121630504030691e-07
0, 3, 153, 9.986339222223251e-08
0, 3, 154, 9.647994403394478e-08
0, 3, 155, 8.3055894606332e-08
0, 3, 156, 7.201327889561071e-08
0, 3, 157, 7.629127907193833e-08
0, 3, 158, 7.680438329771277e-08
0, 3, 159, 7.505939692009633e-08
0, 3, 160, 7.681185820729297e-08
0, 3, 161, 8.000817786069092e-08
0, 3, 162, 9.959865110431565e-08
0, 3, 163, 1.023275686407032e-07
0, 3, 164, 1.069628439154258e-07
0, 3, 165, 1.217834011413288e-07
0, 3, 166, 1.044569515329385e-07
0, 3, 167, 1.012658188415116e-07
0, 3, 168, 9.035008474711503e-08
0, 3, 169, 8.345239166374085e-08
0, 3, 170, 8.205506674130447e-08
0, 3, 171, 8.117650196481918e-08
0, 3, 172, 8.01541304440434e-08
0, 3, 173, 8.534525619552369e-08
0, 3, 174, 7.518748645907181e-08
0, 3, 175, 7.661951428872271e-08
0, 3, 176, 7.247335531701538e-08
0, 3, 177, 7.391833634073919e-08
0, 3, 178, 7.321732198306563e-08
0, 3, 179, 7.796691647854459e-08
0, 3, 180, 8.160246522948e-08
0, 3, 181, 7.963233628061062e-08
0, 3, 182, 7.655369671510925e-08
0, 3, 183, 7.652521816225999e-08
0, 3, 184, 7.156054238066645e-08
0, 3, 185, 7.332058515885365e-08
0, 3, 186, 8.337768520050304e-08
0, 3, 187, 6.365743132619173e-08
0, 3, 188, 7.084947384328188e-08
0, 3, 189, 7.984176164654855e-08
0, 3, 190, 7.950362146402767e-08
0, 3, 191, 8.023438624604751e-08
0, 3, 192, 8.019490849164868e-08
0, 3, 193, 7.51465805137741e-08
0, 3, 194, 7.040870286800782e-08
0, 3, 195, 7.230876519770391e-08
0, 3, 196, 7.3403548128681e-08
0, 3, 197, 7.435337323613567e-08
